,Month,Year,P,Tmean,RH
1,1,1950,69.79,-2.51,75.81
2,2,1950,44.33,-0.30,74.86
3,3,1950,84.38,5.39,72.19
4,4,1950,70.68,14.46,58.28
5,5,1950,119.22,15.38,75.11
6,6,1950,22.74,19.09,57.55
7,7,1950,4.07,21.70,59.00
8,8,1950,1.06,21.10,59.50
9,9,1950,0.00,20.10,54.00
10,10,1950,53.60,11.40,60.40
11,11,1950,15.00,7.70,62.50
12,12,1950,19.10,5.60,73.10
13,1,1951,42.50,1.90,78.50
14,2,1951,36.70,4.70,71.20
15,3,1951,25.70,9.20,61.80
16,4,1951,57.80,12.50,55.90
17,5,1951,14.10,16.70,54.90
18,6,1951,38.30,19.70,53.40
19,7,1951,2.40,22.70,45.40
20,8,1951,0.00,23.00,55.30
21,9,1951,0.60,18.80,52.70
22,10,1951,69.80,9.90,81.00
23,11,1951,49.20,8.00,71.80
24,12,1951,36.40,-1.50,78.40
25,1,1952,24.10,2.10,76.40
26,2,1952,14.30,4.00,69.90
27,3,1952,53.80,4.80,69.30
28,4,1952,57.40,11.30,57.20
29,5,1952,62.90,14.90,58.08
30,6,1952,38.08,17.84,58.68
31,7,1952,10.93,22.07,51.30
32,8,1952,10.55,23.19,48.66
33,9,1952,2.49,21.29,42.78
34,10,1952,10.84,14.68,56.97
35,11,1952,74.73,7.80,72.69
36,12,1952,77.42,5.92,79.41
37,1,1953,113.55,3.73,77.15
38,2,1953,116.95,3.32,73.83
39,3,1953,82.53,0.17,74.93
40,4,1953,63.73,10.87,59.44
41,5,1953,51.00,14.77,57.66
42,6,1953,24.99,19.59,52.62
43,7,1953,0.90,22.41,45.39
44,8,1953,0.82,22.02,44.86
45,9,1953,15.61,16.89,46.53
46,10,1953,20.00,12.65,56.62
47,11,1953,54.44,3.30,77.96
48,12,1953,35.46,-3.47,76.33
49,1,1954,123.67,0.09,78.86
50,2,1954,79.69,3.15,80.09
51,3,1954,50.60,8.16,69.07
52,4,1954,60.71,9.22,65.54
53,5,1954,39.65,15.35,54.98
54,6,1954,21.20,21.07,50.80
55,7,1954,2.56,24.43,41.90
56,8,1954,9.51,23.42,37.89
57,9,1954,3.56,18.16,46.44
58,10,1954,14.22,13.65,51.90
59,11,1954,48.59,7.76,71.46
60,12,1954,151.96,2.23,80.77
61,1,1955,35.38,3.92,76.87
62,2,1955,39.79,7.62,62.83
63,3,1955,64.77,7.74,65.40
64,4,1955,58.31,10.37,65.86
65,5,1955,49.99,16.01,55.66
66,6,1955,1.05,21.38,40.30
67,7,1955,5.39,22.36,46.23
68,8,1955,6.22,21.14,49.21
69,9,1955,15.06,18.12,53.88
70,10,1955,17.69,14.50,55.20
71,11,1955,63.69,7.62,73.92
72,12,1955,74.62,3.59,80.79
73,1,1956,56.34,1.98,79.53
74,2,1956,113.39,2.86,76.99
75,3,1956,38.17,2.74,69.65
76,4,1956,15.94,12.01,50.06
77,5,1956,48.81,14.28,55.52
78,6,1956,7.56,20.49,42.35
79,7,1956,0.65,22.73,36.15
80,8,1956,7.04,23.15,36.44
81,9,1956,5.97,15.69,43.20
82,10,1956,10.92,10.28,46.83
83,11,1956,34.22,5.91,60.05
84,12,1956,60.29,0.23,76.04
85,1,1957,37.71,-1.55,77.02
86,2,1957,44.78,4.37,71.66
87,3,1957,46.15,6.41,62.00
88,4,1957,45.71,11.64,53.97
89,5,1957,70.57,14.67,62.42
90,6,1957,38.79,19.30,54.25
91,7,1957,2.73,23.33,39.89
92,8,1957,0.59,23.81,35.74
93,9,1957,17.55,20.08,50.00
94,10,1957,19.88,14.24,57.78
95,11,1957,38.90,7.29,70.57
96,12,1957,74.89,3.94,74.00
97,1,1958,108.90,2.84,79.31
98,2,1958,43.63,5.37,67.07
99,3,1958,86.94,8.13,67.08
100,4,1958,42.98,11.60,55.81
101,5,1958,39.66,16.37,51.64
102,6,1958,58.79,19.78,51.63
103,7,1958,3.67,22.58,46.41
104,8,1958,1.28,23.03,40.62
105,9,1958,18.04,17.32,53.78
106,10,1958,11.80,11.96,53.58
107,11,1958,10.67,7.06,63.11
108,12,1958,63.88,3.56,77.79
109,1,1959,55.20,2.73,78.54
110,2,1959,28.60,-4.27,77.92
111,3,1959,11.40,4.81,72.43
112,4,1959,40.60,12.10,58.10
113,5,1959,6.20,16.80,57.00
114,6,1959,32.60,20.30,57.40
115,7,1959,4.80,23.00,51.10
116,8,1959,7.80,21.70,48.97
117,9,1959,6.60,15.80,51.70
118,10,1959,40.50,9.50,69.60
119,11,1959,27.40,6.50,76.90
120,12,1959,21.30,5.40,74.40
121,1,1960,27.30,3.40,76.10
122,2,1960,29.50,2.90,76.60
123,3,1960,67.70,5.30,81.20
124,4,1960,67.60,10.80,75.60
125,5,1960,26.30,16.80,57.90
126,6,1960,34.90,18.10,55.40
127,7,1960,1.80,22.30,47.00
128,8,1960,4.90,20.80,50.80
129,9,1960,3.40,18.10,62.50
130,10,1960,3.10,14.50,59.80
131,11,1960,22.30,9.60,77.30
132,12,1960,29.60,6.30,75.80
133,1,1961,21.40,1.00,80.50
134,2,1961,61.80,1.60,83.90
135,3,1961,25.30,4.10,65.80
136,4,1961,4.90,12.30,58.80
137,5,1961,28.90,17.40,59.00
138,6,1961,17.70,20.80,53.50
139,7,1961,0.00,23.30,47.80
140,8,1961,0.30,22.80,50.90
141,9,1961,5.90,14.40,52.80
142,10,1961,34.30,11.90,59.60
143,11,1961,21.60,8.00,70.00
144,12,1961,92.90,5.20,84.30
145,1,1962,9.80,1.60,84.30
146,2,1962,58.80,1.80,81.80
147,3,1962,26.10,8.80,66.70
148,4,1962,27.70,10.70,68.40
149,5,1962,2.30,17.00,58.70
150,6,1962,0.00,21.50,42.20
151,7,1962,0.00,24.10,36.80
152,8,1962,0.30,24.20,35.10
153,9,1962,9.30,18.10,44.20
154,10,1962,59.60,12.70,70.40
155,11,1962,4.10,9.90,68.00
156,12,1962,55.40,6.50,81.10
157,1,1963,53.70,4.10,78.40
158,2,1963,48.40,5.60,80.10
159,3,1963,41.10,3.70,77.50
160,4,1963,25.60,10.10,72.10
161,5,1963,64.20,14.10,76.20
162,6,1963,23.30,19.20,63.10
163,7,1963,2.40,22.40,49.70
164,8,1963,0.00,21.90,43.20
165,9,1963,10.70,17.80,57.20
166,10,1963,11.70,13.40,67.30
167,11,1963,17.50,6.90,70.20
168,12,1963,26.20,2.70,68.90
169,1,1964,19.90,-7.50,63.50
170,2,1964,27.90,1.40,77.70
171,3,1964,39.10,7.00,70.80
172,4,1964,22.30,9.70,52.70
173,5,1964,49.10,14.30,64.50
174,6,1964,76.50,18.90,61.50
175,7,1964,2.30,22.60,48.70
176,8,1964,0.00,21.50,49.20
177,9,1964,1.70,16.60,61.80
178,10,1964,0.10,12.50,61.60
179,11,1964,42.50,6.80,75.70
180,12,1964,70.50,3.50,80.10
181,1,1965,27.00,1.30,82.80
182,2,1965,65.70,1.70,76.90
183,3,1965,24.30,6.90,67.10
184,4,1965,39.80,10.90,63.90
185,5,1965,70.10,14.40,59.50
186,6,1965,15.40,20.30,43.50
187,7,1965,0.00,22.90,43.40
188,8,1965,0.00,23.30,52.00
189,9,1965,0.00,17.70,45.30
190,10,1965,35.20,8.00,66.10
191,11,1965,34.60,6.50,70.00
192,12,1965,74.20,3.90,80.80
193,1,1966,63.00,3.70,79.00
194,2,1966,20.50,5.40,73.10
195,3,1966,30.70,6.60,65.80
196,4,1966,10.50,11.60,60.50
197,5,1966,12.80,14.80,53.00
198,6,1966,1.80,20.20,41.90
199,7,1966,2.00,23.70,35.60
200,8,1966,0.00,24.40,37.20
201,9,1966,12.00,17.60,49.20
202,10,1966,2.20,14.30,56.00
203,11,1966,56.90,10.20,70.60
204,12,1966,48.60,3.70,80.80
205,1,1967,22.60,-0.20,79.20
206,2,1967,32.60,-2.90,81.10
207,3,1967,65.60,3.50,77.00
208,4,1967,34.00,9.80,62.00
209,5,1967,52.00,14.70,62.80
210,6,1967,10.90,18.50,48.00
211,7,1967,3.60,21.40,42.80
212,8,1967,0.00,21.50,43.00
213,9,1967,1.90,17.30,46.40
214,10,1967,19.40,11.90,65.50
215,11,1967,30.60,5.20,78.20
216,12,1967,31.40,3.70,77.50
217,1,1968,113.40,-1.00,80.90
218,2,1968,26.50,0.60,79.70
219,3,1968,42.10,4.90,68.50
220,4,1968,6.10,13.50,50.30
221,5,1968,22.90,17.30,55.10
222,6,1968,22.00,19.00,51.20
223,7,1968,1.20,23.10,37.50
224,8,1968,16.30,21.30,42.30
225,9,1968,24.00,17.40,55.10
226,10,1968,24.50,12.00,68.00
227,11,1968,72.90,8.00,74.90
228,12,1968,77.20,4.70,80.20
229,1,1969,113.50,0.00,82.20
230,2,1969,22.20,2.40,76.60
231,3,1969,85.10,7.30,72.10
232,4,1969,16.60,8.10,64.60
233,5,1969,56.90,16.00,63.10
234,6,1969,5.80,20.80,46.80
235,7,1969,3.10,21.10,41.20
236,8,1969,0.00,22.40,38.50
237,9,1969,52.70,18.30,51.20
238,10,1969,24.70,12.00,64.30
239,11,1969,41.10,6.20,70.90
240,12,1969,43.20,5.50,73.40
241,1,1970,48.00,4.60,76.10
242,2,1970,14.70,5.80,66.90
243,3,1970,31.10,7.70,64.10
244,4,1970,15.70,13.10,53.80
245,5,1970,9.50,15.40,51.20
246,6,1970,20.60,20.10,47.60
247,7,1970,20.40,23.20,47.70
248,8,1970,0.00,21.00,44.10
249,9,1970,14.30,16.80,52.50
250,10,1970,38.10,10.50,69.00
251,11,1970,52.20,8.20,74.00
252,12,1970,39.10,0.40,78.10
253,1,1971,22.60,4.70,65.60
254,2,1971,42.10,2.30,72.50
255,3,1971,23.90,6.70,65.00
256,4,1971,144.10,9.10,70.10
257,5,1971,25.70,15.70,59.10
258,6,1971,17.80,19.40,54.40
259,7,1971,0.00,23.40,49.60
260,8,1971,4.20,21.40,53.50
261,9,1971,0.00,19.10,52.70
262,10,1971,22.10,10.00,63.60
263,11,1971,23.70,7.10,66.50
264,12,1971,47.80,0.70,74.70
265,1,1972,34.10,-6.80,79.10
266,2,1972,65.90,-4.00,75.50
267,3,1972,23.10,5.50,63.10
268,4,1972,62.70,13.10,57.70
269,5,1972,41.70,15.20,61.60
270,6,1972,17.30,19.80,58.40
271,7,1972,5.60,24.00,50.60
272,8,1972,1.20,22.80,54.80
273,9,1972,3.20,19.70,55.00
274,10,1972,22.90,13.20,61.80
275,11,1972,6.90,5.20,65.40
276,12,1972,1.80,-2.30,65.80
277,1,1973,16.00,-1.50,71.30
278,2,1973,39.40,4.70,60.60
279,3,1973,37.90,4.80,62.50
280,4,1973,20.60,10.60,55.80
281,5,1973,29.30,16.20,54.70
282,6,1973,19.00,18.60,52.90
283,7,1973,2.90,23.10,42.10
284,8,1973,0.00,21.70,51.80
285,9,1973,4.20,19.40,57.00
286,10,1973,7.70,13.10,56.40
287,11,1973,14.10,3.80,64.00
288,12,1973,21.50,1.60,80.10
289,1,1974,22.80,-3.50,82.60
290,2,1974,10.40,3.40,72.20
291,3,1974,25.50,7.90,69.80
292,4,1974,16.20,10.10,62.90
293,5,1974,29.70,16.20,59.10
294,6,1974,16.90,21.40,54.30
295,7,1974,0.00,22.70,41.90
296,8,1974,5.40,21.60,48.90
297,9,1974,6.60,16.40,50.60
298,10,1974,54.10,16.00,57.10
299,11,1974,20.70,7.30,75.00
300,12,1974,73.20,-0.10,84.00
301,1,1975,57.80,-0.60,83.00
302,2,1975,89.50,0.00,82.30
303,3,1975,21.10,7.50,62.60
304,4,1975,100.60,12.40,62.60
305,5,1975,55.30,14.50,71.40
306,6,1975,46.40,19.20,60.50
307,7,1975,0.70,23.60,54.70
308,8,1975,6.40,21.40,47.90
309,9,1975,0.00,17.60,50.90
310,10,1975,33.10,11.60,58.50
311,11,1975,32.50,4.60,72.00
312,12,1975,70.00,-1.80,81.60
313,1,1976,40.30,-1.50,78.30
314,2,1976,37.40,-2.10,78.10
315,3,1976,22.40,5.40,73.20
316,4,1976,51.40,10.20,67.70
317,5,1976,68.40,15.10,67.90
318,6,1976,11.80,18.70,56.90
319,7,1976,16.50,21.70,52.10
320,8,1976,4.20,20.50,53.10
321,9,1976,0.40,17.40,52.70
322,10,1976,74.50,13.00,69.30
323,11,1976,66.90,7.70,72.70
324,12,1976,28.50,2.80,81.20
325,1,1977,73.10,-2.00,82.00
326,2,1977,48.30,6.10,71.20
327,3,1977,45.30,5.20,72.20
328,4,1977,125.10,9.90,66.70
329,5,1977,28.90,15.30,66.50
330,6,1977,20.80,19.60,53.70
331,7,1977,1.60,22.80,45.20
332,8,1977,0.00,22.80,45.00
333,9,1977,9.30,18.20,62.40
334,10,1977,55.50,9.30,66.40
335,11,1977,0.40,9.30,62.90
336,12,1977,70.00,0.00,82.80
337,1,1978,69.00,3.00,82.00
338,2,1978,24.70,5.90,68.40
339,3,1978,80.90,7.20,69.80
340,4,1978,27.40,11.10,62.50
341,5,1978,5.00,17.30,48.70
342,6,1978,11.60,19.90,44.10
343,7,1978,0.00,23.50,38.50
344,8,1978,0.00,20.70,41.60
345,9,1978,18.60,18.20,51.90
346,10,1978,75.80,13.40,62.00
347,11,1978,1.20,3.10,71.30
348,12,1978,30.60,4.30,77.70
349,1,1979,81.30,2.70,76.30
350,2,1979,10.70,4.90,70.60
351,3,1979,35.60,8.00,62.10
352,4,1979,24.50,11.70,55.30
353,5,1979,29.80,16.10,52.70
354,6,1979,62.80,19.60,52.80
355,7,1979,6.10,22.10,44.70
356,8,1979,0.00,23.50,40.90
357,9,1979,0.90,18.60,47.60
358,10,1979,20.50,13.30,64.50
359,11,1979,53.20,8.60,72.40
360,12,1979,52.60,2.60,82.00
361,1,1980,45.50,-0.70,81.60
362,2,1980,54.90,0.80,81.10
363,3,1980,60.20,5.20,73.20
364,4,1980,72.40,10.70,63.50
365,5,1980,69.40,15.50,55.90
366,6,1980,2.80,20.70,40.70
367,7,1980,4.00,25.10,39.60
368,8,1980,3.30,22.30,40.40
369,9,1980,4.80,17.20,48.40
370,10,1980,11.30,13.20,57.00
371,11,1980,43.20,7.00,72.30
372,12,1980,11.70,3.60,72.60
373,1,1981,113.40,3.20,76.30
374,2,1981,40.00,2.50,77.50
375,3,1981,8.10,8.10,62.20
376,4,1981,13.40,10.50,52.30
377,5,1981,49.50,13.50,59.90
378,6,1981,26.70,20.10,52.40
379,7,1981,16.70,23.20,47.60
380,8,1981,0.00,22.30,46.90
381,9,1981,0.40,18.90,45.90
382,10,1981,6.50,15.20,52.30
383,11,1981,26.10,5.20,68.90
384,12,1981,72.00,6.70,72.30
385,1,1982,47.10,1.90,73.70
386,2,1982,27.10,-1.10,72.10
387,3,1982,42.00,3.90,70.50
388,4,1982,54.00,11.60,62.70
389,5,1982,46.70,15.10,55.30
390,6,1982,22.20,19.40,51.30
391,7,1982,0.70,21.30,48.30
392,8,1982,2.60,21.50,46.20
393,9,1982,0.30,18.80,50.30
394,10,1982,19.00,12.30,63.90
395,11,1982,9.20,4.30,66.20
396,12,1982,26.90,2.20,68.40
397,1,1983,26.70,-2.90,77.30
398,2,1983,31.90,0.30,72.50
399,3,1983,47.30,4.80,70.00
400,4,1983,83.10,11.10,61.00
401,5,1983,12.30,16.10,55.40
402,6,1983,24.70,19.10,52.10
403,7,1983,3.00,22.50,47.60
404,8,1983,3.20,20.70,47.90
405,9,1983,6.80,17.40,50.50
406,10,1983,24.60,10.70,65.20
407,11,1983,35.90,8.80,72.60
408,12,1983,34.00,3.10,76.00
409,1,1984,24.30,3.10,79.80
410,2,1984,16.60,4.00,70.10
411,3,1984,71.30,7.10,67.30
412,4,1984,45.90,9.60,67.30
413,5,1984,9.80,17.00,53.90
414,6,1984,3.20,20.40,48.70
415,7,1984,0.50,22.30,52.00
416,8,1984,4.60,20.10,49.10
417,9,1984,0.00,19.90,41.90
418,10,1984,0.20,12.40,49.40
419,11,1984,31.20,6.60,76.60
420,12,1984,34.60,-3.20,83.70
421,1,1985,13.20,4.40,77.00
422,2,1985,47.70,-2.20,80.20
423,3,1985,16.10,3.50,74.60
424,4,1985,29.00,12.80,59.70
425,5,1985,20.50,17.60,59.60
426,6,1985,1.60,21.40,52.40
427,7,1985,0.00,21.90,45.30
428,8,1985,3.90,24.50,42.60
429,9,1985,0.00,18.50,45.40
430,10,1985,83.40,9.50,70.00
431,11,1985,31.00,8.90,75.00
432,12,1985,34.10,2.00,81.40
433,1,1986,29.50,4.00,71.50
434,2,1986,33.30,4.40,73.40
435,3,1986,3.10,7.10,62.80
436,4,1986,15.00,13.40,56.00
437,5,1986,87.10,12.50,71.20
438,6,1986,18.10,19.90,54.40
439,7,1986,0.50,24.70,46.50
440,8,1986,0.00,25.00,41.70
441,9,1986,10.00,20.20,50.60
442,10,1986,3.80,12.80,60.50
443,11,1986,66.20,2.70,78.10
444,12,1986,55.10,1.10,74.80
445,1,1987,35.90,3.70,71.30
446,2,1987,20.70,4.40,70.10
447,3,1987,71.60,-0.40,75.20
448,4,1987,9.20,9.70,60.20
449,5,1987,33.70,16.50,54.10
450,6,1987,25.10,20.10,54.70
451,7,1987,5.40,23.60,46.90
452,8,1987,0.00,22.50,45.90
453,9,1987,0.00,19.00,46.40
454,10,1987,51.80,11.60,64.10
455,11,1987,57.10,6.10,73.40
456,12,1987,81.30,3.20,76.30
457,1,1988,3.00,1.50,77.40
458,2,1988,41.50,3.10,74.30
459,3,1988,56.00,4.90,69.80
460,4,1988,60.70,11.20,67.90
461,5,1988,47.20,16.40,61.00
462,6,1988,27.00,19.80,57.00
463,7,1988,11.40,23.50,50.10
464,8,1988,0.00,22.60,45.70
465,9,1988,1.20,18.60,49.00
466,10,1988,60.30,11.30,67.80
467,11,1988,29.00,4.20,74.30
468,12,1988,22.40,3.90,74.20
469,1,1989,37.10,-8.30,79.20
470,2,1989,0.70,-2.90,74.40
471,3,1989,41.70,7.80,64.50
472,4,1989,12.20,16.30,48.90
473,5,1989,20.60,17.40,50.50
474,6,1989,0.00,21.70,46.60
475,7,1989,0.00,24.20,43.50
476,8,1989,20.60,24.30,41.80
477,9,1989,0.60,19.20,46.70
478,10,1989,26.80,11.30,67.10
479,11,1989,76.10,7.40,72.40
480,12,1989,18.30,1.00,80.50
481,1,1990,32.20,-6.80,80.80
482,2,1990,34.40,0.00,77.00
483,3,1990,37.60,6.20,59.80
484,4,1990,12.90,11.20,60.00
485,5,1990,46.70,14.70,58.30
486,6,1990,5.90,20.10,48.30
487,7,1990,0.30,24.30,46.50
488,8,1990,11.80,21.40,44.20
489,9,1990,19.30,17.80,54.70
490,10,1990,12.00,12.70,61.40
491,11,1990,31.20,9.10,68.10
492,12,1990,35.80,3.70,73.50
493,1,1991,46.50,-1.00,80.50
494,2,1991,34.50,-2.10,75.30
495,3,1991,20.20,7.50,62.20
496,4,1991,37.00,12.00,58.80
497,5,1991,15.90,15.20,56.20
498,6,1991,2.20,21.30,49.80
499,7,1991,0.50,23.90,45.10
500,8,1991,0.00,23.50,46.70
501,9,1991,1.50,17.90,49.40
502,10,1991,17.50,14.30,58.40
503,11,1991,46.40,6.30,70.80
504,12,1991,121.80,-1.00,80.00
505,1,1992,14.80,-4.20,76.60
506,2,1992,46.70,-7.90,77.90
507,3,1992,35.80,2.20,66.80
508,4,1992,17.40,11.40,52.10
509,5,1992,73.80,14.50,54.30
510,6,1992,56.80,19.10,53.80
511,7,1992,32.50,20.40,48.70
512,8,1992,26.00,22.40,47.60
513,9,1992,0.70,16.00,54.30
514,10,1992,2.00,15.60,51.00
515,11,1992,19.70,5.20,66.00
516,12,1992,53.30,-1.80,79.20
517,1,1993,18.10,-3.90,79.30
518,2,1993,8.50,-0.70,72.00
519,3,1993,36.80,5.10,61.80
520,4,1993,24.90,11.40,54.40
521,5,1993,67.40,14.50,63.50
522,6,1993,41.00,19.40,50.80
523,7,1993,0.00,22.80,40.20
524,8,1993,0.00,22.50,42.10
525,9,1993,0.00,18.60,44.60
526,10,1993,5.80,13.20,47.30
527,11,1993,31.70,3.60,65.90
528,12,1993,21.40,4.30,74.00
529,1,1994,67.60,3.70,73.70
530,2,1994,34.60,2.60,69.30
531,3,1994,18.90,6.20,62.30
532,4,1994,33.50,13.70,50.20
533,5,1994,14.80,17.60,45.60
534,6,1994,8.70,20.80,36.60
535,7,1994,2.50,23.30,36.40
536,8,1994,6.20,22.50,38.20
537,9,1994,5.40,21.60,41.20
538,10,1994,38.80,15.70,59.30
539,11,1994,73.70,5.20,76.80
540,12,1994,43.40,0.40,80.20
541,1,1995,27.20,2.60,79.40
542,2,1995,29.60,3.70,75.80
543,3,1995,24.60,6.90,67.00
544,4,1995,29.20,9.50,66.00
545,5,1995,26.20,17.60,54.90
546,6,1995,27.30,22.00,49.70
547,7,1995,21.60,21.30,53.70
548,8,1995,4.50,23.70,46.70
549,9,1995,0.80,19.80,50.80
550,10,1995,25.90,10.80,61.80
551,11,1995,36.10,2.90,69.70
552,12,1995,12.30,1.70,76.70
553,1,1996,15.30,0.80,74.20
554,2,1996,30.30,4.30,67.10
555,3,1996,67.40,4.30,70.40
556,4,1996,40.40,9.30,61.50
557,5,1996,25.70,18.30,53.80
558,6,1996,0.60,20.40,43.90
559,7,1996,0.00,25.30,43.80
560,8,1996,0.50,23.60,45.70
561,9,1996,2.00,19.00,52.90
562,10,1996,50.10,11.50,64.00
563,11,1996,0.10,7.70,68.10
564,12,1996,76.80,7.00,72.70
565,1,1997,36.40,1.60,71.30
566,2,1997,48.60,-0.40,72.00
567,3,1997,24.70,2.20,62.80
568,4,1997,43.80,7.90,57.30
569,5,1997,14.60,17.70,56.80
570,6,1997,35.10,20.50,54.20
571,7,1997,0.60,23.70,42.90
572,8,1997,27.50,21.60,48.90
573,9,1997,17.30,16.50,49.10
574,10,1997,28.80,13.70,58.50
575,11,1997,3.50,6.90,63.80
576,12,1997,50.90,4.00,72.50
577,1,1998,48.00,0.70,70.70
578,2,1998,15.80,1.80,63.20
579,3,1998,42.60,3.80,61.60
580,4,1998,31.80,13.10,55.50
581,5,1998,45.40,17.20,55.80
582,6,1998,26.70,21.10,50.90
583,7,1998,1.60,25.30,42.90
584,8,1998,1.70,25.20,43.40
585,9,1998,0.00,20.00,56.00
586,10,1998,40.30,13.90,56.70
587,11,1998,8.80,10.20,66.20
588,12,1998,50.60,3.80,75.00
589,1,1999,39.70,2.30,71.80
590,2,1999,34.40,3.20,67.90
591,3,1999,24.20,6.00,59.10
592,4,1999,21.40,11.90,54.20
593,5,1999,10.50,17.70,45.70
594,6,1999,87.50,20.10,53.90
595,7,1999,1.40,24.60,43.70
596,8,1999,10.70,24.00,48.20
597,9,1999,0.10,19.40,49.20
598,10,1999,3.80,13.90,62.30
599,11,1999,1.00,6.00,62.50
600,12,1999,7.50,4.70,61.60
601,1,2000,79.20,-3.90,78.50
602,2,2000,46.00,-0.60,79.10
603,3,2000,31.60,4.40,65.50
604,4,2000,24.70,13.30,58.90
605,5,2000,83.60,14.70,66.50
606,6,2000,9.80,20.00,53.80
607,7,2000,0.00,25.80,43.50
608,8,2000,5.50,22.50,52.60
609,9,2000,2.00,18.70,57.20
610,10,2000,40.60,11.10,66.60
611,11,2000,6.80,6.30,63.50
612,12,2000,36.10,1.80,74.40
613,1,2001,0.40,2.70,69.80
614,2,2001,26.40,3.30,65.30
615,3,2001,27.50,11.20,56.00
616,4,2001,24.40,13.00,51.10
617,5,2001,78.20,14.80,58.70
618,6,2001,0.00,22.10,40.60
619,7,2001,4.20,25.60,40.70
620,8,2001,5.50,24.00,46.90
621,9,2001,0.00,20.50,51.30
622,10,2001,9.40,11.30,57.40
623,11,2001,62.50,6.40,72.50
624,12,2001,79.20,3.90,79.50
625,1,2002,40.90,-4.90,87.20
626,2,2002,30.00,3.40,73.60
627,3,2002,30.10,8.10,61.20
628,4,2002,70.70,10.50,70.10
629,5,2002,42.70,15.70,60.50
630,6,2002,23.90,20.10,51.60
631,7,2002,13.40,24.00,49.30
632,8,2002,13.60,22.20,52.30
633,9,2002,7.30,18.60,59.80
634,10,2002,4.90,13.90,59.40
635,11,2002,22.20,7.80,70.30
636,12,2002,60.50,-3.10,78.20
637,1,2003,24.00,5.30,71.80
638,2,2003,73.20,-1.20,77.90
639,3,2003,65.40,2.10,74.20
640,4,2003,51.10,10.10,61.90
641,5,2003,43.90,17.70,53.00
642,6,2003,27.00,20.60,49.00
643,7,2003,0.00,23.50,46.20
644,8,2003,0.00,23.40,47.20
645,9,2003,28.80,17.90,57.10
646,10,2003,26.40,15.10,59.70
647,11,2003,28.90,6.80,68.30
648,12,2003,64.20,2.80,72.90
649,1,2004,48.90,0.50,75.00
650,2,2004,45.80,2.20,68.60
651,3,2004,19.30,6.80,54.90
652,4,2004,13.70,10.90,55.50
653,5,2004,12.60,16.00,53.80
654,6,2004,12.30,20.90,48.90
655,7,2004,6.60,23.80,43.90
656,8,2004,0.00,23.60,48.90
657,9,2004,0.00,18.50,46.40
658,10,2004,0.20,14.50,57.10
659,11,2004,67.80,6.00,68.40
660,12,2004,14.90,0.70,67.60
661,1,2005,25.80,2.90,66.10
662,2,2005,20.60,2.20,62.00
663,3,2005,5.80,7.00,53.80
664,4,2005,23.90,11.20,50.80
665,5,2005,20.40,16.70,45.40
666,6,2005,30.30,20.40,42.30
667,7,2005,5.00,24.80,37.90
668,8,2005,7.20,24.40,44.40
669,9,2005,15.10,17.10,53.70
670,10,2005,16.20,10.00,62.00
671,11,2005,46.00,4.80,67.90
672,12,2005,7.60,2.60,63.50
673,1,2006,66.20,-2.70,74.00
674,2,2006,14.90,2.20,68.40
675,3,2006,19.60,7.10,58.30
676,4,2006,32.60,12.30,54.40
677,5,2006,4.60,17.10,51.60
678,6,2006,2.80,22.50,45.00
679,7,2006,27.50,23.00,43.60
680,8,2006,14.20,26.60,42.00
681,9,2006,16.90,18.90,53.00
682,10,2006,54.10,14.30,64.30
683,11,2006,30.00,4.90,68.30
684,12,2006,1.70,-0.10,59.80
685,1,2007,41.60,1.00,62.70
686,2,2007,34.80,0.10,75.60
687,3,2007,19.50,6.30,58.90
688,4,2007,28.20,8.00,56.40
689,5,2007,28.40,18.80,50.60
690,6,2007,43.70,21.90,46.60
691,7,2007,0.50,25.30,36.90
692,8,2007,1.30,24.80,44.10
693,9,2007,0.00,19.50,46.10
694,10,2007,12.10,13.80,58.00
695,11,2007,63.90,7.10,66.50
696,12,2007,48.90,1.40,69.90
697,1,2008,29.50,-3.30,67.10
698,2,2008,20.00,-3.70,71.50
699,3,2008,18.10,10.50,48.40
700,4,2008,12.20,14.80,46.90
701,5,2008,34.50,15.70,51.00
702,6,2008,12.60,21.70,43.80
703,7,2008,0.00,24.30,41.50
704,8,2008,0.00,25.20,44.40
705,9,2008,23.90,19.90,53.20
706,10,2008,24.70,12.20,66.00
707,11,2008,21.60,8.10,66.20
708,12,2008,40.80,0.30,72.10
709,1,2009,66.00,2.20,68.20
710,2,2009,52.10,4.10,68.70
711,3,2009,27.30,5.10,59.30
712,4,2009,32.40,10.60,55.90
713,5,2009,40.40,15.30,52.20
714,6,2009,10.60,22.20,42.50
715,7,2009,14.20,23.70,46.70
716,8,2009,0.00,22.30,43.70
717,9,2009,13.40,17.90,51.00
718,10,2009,21.40,15.90,50.00
719,11,2009,59.60,6.50,69.50
720,12,2009,50.70,6.20,70.90
721,1,2010,32.60,5.20,66.90
722,2,2010,32.00,6.90,59.90
723,3,2010,20.20,9.30,52.70
724,4,2010,62.80,11.70,58.40
725,5,2010,16.70,18.20,45.90
726,6,2010,17.80,21.60,49.90
727,7,2010,0.20,26.30,40.60
728,8,2010,0.00,26.90,33.00
729,9,2010,1.60,21.70,46.10
730,10,2010,70.20,13.50,60.70
731,11,2010,0.80,10.40,55.20
732,12,2010,75.60,6.80,66.40